# Pair potential lj/cut for atom types 1 1: i,r,energy,force

lj_rsq
N 1000 RSQ 0.1 2.5

1 0.1 4e+12 4.8e+14
2 0.127461 2.1754e+11 2.04807e+13
3 0.149975 3.08908e+10 2.47169e+12
4 0.169525 7.09976e+09 5.02569e+11
5 0.187043 2.18148e+09 1.39959e+11
6 0.203055 8.14089e+08 4.81122e+10
7 0.217893 3.49211e+08 1.92331e+10
8 0.231784 1.6634e+08 8.61247e+09
9 0.244888 8.59732e+07 4.21332e+09
10 0.257325 4.74403e+07 2.21264e+09
11 0.269189 2.76195e+07 1.23147e+09
12 0.280551 1.68156e+07 7.19428e+08
13 0.29147 1.06331e+07 4.37907e+08
14 0.301995 6.94588e+06 2.76104e+08
15 0.312166 4.66697e+06 1.79487e+08
16 0.322015 3.21412e+06 1.19842e+08
17 0.331572 2.2623e+06 8.19298e+07
18 0.340861 1.6235e+06 5.72e+07
19 0.349903 1.18545e+06 4.06926e+07
20 0.358718 879213 2.94432e+07
21 0.367321 661361 2.16326e+07
22 0.375728 503918 1.61169e+07
23 0.38395 388484 1.21612e+07
24 0.392 302729 9.2841e+06
25 0.399887 238247 7.16411e+06
26 0.407623 189219 5.58325e+06
27 0.415214 151555 4.39132e+06
28 0.422668 122343 3.4834e+06
29 0.429994 99484.8 2.78519e+06
30 0.437197 81450.1 2.24347e+06
31 0.444283 67110.5 1.81967e+06
32 0.451258 55626.3 1.48553e+06
33 0.458126 46366.2 1.22017e+06
34 0.464894 38851.7 1.00797e+06
35 0.471564 32717 837185
36 0.478141 27680.2 698897
37 0.484629 23522.8 586275
38 0.491031 20073.6 494054
39 0.49735 17198.4 418149
40 0.503591 14790.6 355365
41 0.509755 12765.5 303192
42 0.515845 11055.2 259645
43 0.521864 9605.2 223143
44 0.527815 8371.18 192424
45 0.533699 7317.24 166471
46 0.539519 6414.03 144465
47 0.545277 5637.45 125739
48 0.550975 4967.67 109751
49 0.556615 4388.27 96056.2
50 0.562198 3885.61 84289.6
51 0.567726 3448.32 74149.6
52 0.5732 3066.9 65386.4
53 0.578623 2733.36 57792.1
54 0.583996 2440.98 51193.5
55 0.589319 2184.07 45445.3
56 0.594595 1957.83 40425.8
57 0.599825 1758.14 36032.2
58 0.605009 1581.53 32177.6
59 0.610149 1425.01 28788.6
60 0.615247 1286.03 25802.4
61 0.620302 1162.38 23165.9
62 0.625317 1052.17 20833.4
63 0.630291 953.769 18766
64 0.635227 865.759 16930
65 0.640125 786.914 15296.7
66 0.644985 716.165 13841.1
67 0.649809 652.583 12541.8
68 0.654598 595.355 11380
69 0.659352 543.772 10339.5
70 0.664072 497.212 9406.2
71 0.668758 455.127 8567.84
72 0.673412 417.037 7813.64
73 0.678034 382.519 7134.21
74 0.682624 351.198 6521.27
75 0.687184 322.744 5967.6
76 0.691714 296.863 5466.8
77 0.696215 273.296 5013.25
78 0.700686 251.813 4602
79 0.705129 232.207 4228.65
80 0.709545 214.297 3889.31
81 0.713933 197.918 3580.53
82 0.718294 182.925 3299.26
83 0.722629 169.186 3042.76
84 0.726938 156.587 2808.6
85 0.731221 145.02 2594.63
86 0.73548 134.393 2398.91
87 0.739714 124.62 2219.69
88 0.743924 115.626 2055.45
89 0.748111 107.34 1904.78
90 0.752274 99.7022 1766.44
91 0.756414 92.6554 1639.31
92 0.760532 86.1492 1522.38
93 0.764627 80.1376 1414.73
94 0.768701 74.579 1315.56
95 0.772753 69.4358 1224.12
96 0.776784 64.6735 1139.74
97 0.780794 60.2611 1061.81
98 0.784784 56.1701 989.794
99 0.788754 52.3749 923.189
100 0.792703 48.8518 861.544
101 0.796633 45.5794 804.45
102 0.800544 42.538 751.534
103 0.804436 39.7098 702.459
104 0.808309 37.0784 656.914
105 0.812164 34.6287 614.62
106 0.816 32.347 575.319
107 0.819818 30.2208 538.778
108 0.823619 28.2384 504.781
109 0.827402 26.3892 473.133
110 0.831168 24.6634 443.655
111 0.834917 23.0522 416.183
112 0.83865 21.5472 390.565
113 0.842365 20.1409 366.664
114 0.846065 18.8261 344.353
115 0.849748 17.5965 323.516
116 0.853416 16.4461 304.044
117 0.857067 15.3694 285.84
118 0.860704 14.3613 268.813
119 0.864325 13.4171 252.879
120 0.86793 12.5325 237.961
121 0.871521 11.7033 223.987
122 0.875098 10.9259 210.893
123 0.878659 10.1969 198.617
124 0.882206 9.51296 187.104
125 0.88574 8.87119 176.301
126 0.889259 8.2688 166.16
127 0.892764 7.70324 156.638
128 0.896255 7.17212 147.692
129 0.899733 6.67322 139.285
130 0.903198 6.20449 131.381
131 0.906649 5.76401 123.948
132 0.910087 5.34999 116.955
133 0.913512 4.96077 110.373
134 0.916925 4.59481 104.176
135 0.920324 4.25064 98.3402
136 0.923712 3.92694 92.8421
137 0.927087 3.62243 87.6606
138 0.930449 3.33595 82.776
139 0.9338 3.06639 78.1699
140 0.937138 2.81273 73.825
141 0.940465 2.57402 69.7254
142 0.94378 2.34935 65.8561
143 0.947083 2.13789 62.2032
144 0.950375 1.93885 58.7536
145 0.953656 1.7515 55.4951
146 0.956925 1.57515 52.4163
147 0.960183 1.40915 49.5067
148 0.96343 1.2529 46.7562
149 0.966667 1.10583 44.1556
150 0.969892 0.967411 41.696
151 0.973107 0.837141 39.3694
152 0.976311 0.714552 37.168
153 0.979505 0.599205 35.0847
154 0.982688 0.490686 33.1127
155 0.985861 0.388606 31.2457
156 0.989024 0.2926 29.4779
157 0.992177 0.202325 27.8035
158 0.995319 0.117459 26.2174
159 0.998452 0.0376966 24.7147
160 1.00158 -0.037247 23.2907
161 1.00469 -0.107641 21.9412
162 1.00779 -0.17374 20.662
163 1.01089 -0.23578 19.4493
164 1.01397 -0.293989 18.2994
165 1.01705 -0.348577 17.209
166 1.02011 -0.399743 16.1749
167 1.02317 -0.447678 15.194
168 1.02622 -0.492557 14.2636
169 1.02926 -0.53455 13.3808
170 1.03229 -0.573813 12.5432
171 1.03531 -0.610496 11.7485
172 1.03832 -0.644739 10.9943
173 1.04132 -0.676677 10.2785
174 1.04432 -0.706434 9.59917
175 1.0473 -0.73413 8.95437
176 1.05028 -0.759876 8.34232
177 1.05325 -0.783778 7.76133
178 1.05621 -0.805936 7.2098
179 1.05917 -0.826446 6.68623
180 1.06211 -0.845396 6.1892
181 1.06505 -0.862872 5.71734
182 1.06797 -0.878953 5.26939
183 1.0709 -0.893715 4.84415
184 1.07381 -0.907231 4.44045
185 1.07671 -0.919567 4.05724
186 1.07961 -0.930789 3.69347
187 1.0825 -0.940956 3.34818
188 1.08538 -0.950127 3.02046
189 1.08825 -0.958356 2.70943
190 1.09112 -0.965695 2.41426
191 1.09398 -0.972193 2.13418
192 1.09683 -0.977896 1.86844
193 1.09967 -0.982847 1.61634
194 1.10251 -0.98709 1.37721
195 1.10534 -0.990663 1.15041
196 1.10816 -0.993603 0.935356
197 1.11097 -0.995947 0.731467
198 1.11378 -0.997727 0.538203
199 1.11658 -0.998975 0.35505
200 1.11938 -0.999723 0.181521
201 1.12216 -0.999997 0.0171515
202 1.12494 -0.999827 -0.138499
203 1.12772 -0.999237 -0.285849
204 1.13048 -0.998252 -0.425297
205 1.13324 -0.996894 -0.557221
206 1.13599 -0.995187 -0.681979
207 1.13874 -0.993151 -0.799915
208 1.14148 -0.990806 -0.911354
209 1.14421 -0.98817 -1.0166
210 1.14694 -0.985262 -1.11596
211 1.14966 -0.982098 -1.2097
212 1.15237 -0.978695 -1.2981
213 1.15508 -0.975067 -1.3814
214 1.15778 -0.97123 -1.45984
215 1.16047 -0.967196 -1.53367
216 1.16316 -0.962979 -1.60309
217 1.16584 -0.958591 -1.66832
218 1.16852 -0.954044 -1.72955
219 1.17119 -0.94935 -1.78697
220 1.17385 -0.944517 -1.84076
221 1.17651 -0.939558 -1.8911
222 1.17916 -0.93448 -1.93814
223 1.18181 -0.929294 -1.98205
224 1.18445 -0.924007 -2.02297
225 1.18708 -0.918628 -2.06105
226 1.18971 -0.913165 -2.09641
227 1.19233 -0.907624 -2.12919
228 1.19495 -0.902013 -2.15951
229 1.19756 -0.896338 -2.18749
230 1.20016 -0.890605 -2.21324
231 1.20276 -0.884821 -2.23686
232 1.20536 -0.878991 -2.25847
233 1.20794 -0.873119 -2.27814
234 1.21053 -0.867212 -2.29599
235 1.2131 -0.861274 -2.31209
236 1.21568 -0.855309 -2.32653
237 1.21824 -0.849321 -2.33939
238 1.2208 -0.843315 -2.35074
239 1.22336 -0.837295 -2.36067
240 1.22591 -0.831263 -2.36924
241 1.22845 -0.825224 -2.37651
242 1.23099 -0.819181 -2.38256
243 1.23353 -0.813136 -2.38743
244 1.23606 -0.807092 -2.3912
245 1.23858 -0.801053 -2.39391
246 1.2411 -0.79502 -2.39562
247 1.24361 -0.788997 -2.39638
248 1.24612 -0.782985 -2.39624
249 1.24863 -0.776986 -2.39523
250 1.25113 -0.771003 -2.39342
251 1.25362 -0.765038 -2.39084
252 1.25611 -0.759092 -2.38752
253 1.25859 -0.753166 -2.38352
254 1.26107 -0.747263 -2.37886
255 1.26355 -0.741384 -2.37358
256 1.26601 -0.73553 -2.36771
257 1.26848 -0.729702 -2.36129
258 1.27094 -0.723903 -2.35434
259 1.27339 -0.718132 -2.3469
260 1.27584 -0.712391 -2.339
261 1.27829 -0.706681 -2.33065
262 1.28073 -0.701003 -2.32189
263 1.28317 -0.695357 -2.31273
264 1.2856 -0.689745 -2.30321
265 1.28803 -0.684167 -2.29335
266 1.29045 -0.678624 -2.28315
267 1.29287 -0.673116 -2.27266
268 1.29528 -0.667644 -2.26188
269 1.29769 -0.662208 -2.25084
270 1.30009 -0.65681 -2.23954
271 1.30249 -0.651449 -2.22801
272 1.30489 -0.646125 -2.21627
273 1.30728 -0.64084 -2.20433
274 1.30967 -0.635593 -2.1922
275 1.31205 -0.630385 -2.1799
276 1.31443 -0.625215 -2.16744
277 1.3168 -0.620085 -2.15484
278 1.31917 -0.614994 -2.1421
279 1.32154 -0.609942 -2.12923
280 1.3239 -0.60493 -2.11626
281 1.32625 -0.599958 -2.10319
282 1.32861 -0.595025 -2.09002
283 1.33096 -0.590132 -2.07678
284 1.3333 -0.585278 -2.06346
285 1.33564 -0.580465 -2.05008
286 1.33798 -0.575691 -2.03664
287 1.34031 -0.570957 -2.02315
288 1.34264 -0.566262 -2.00963
289 1.34496 -0.561608 -1.99607
290 1.34728 -0.556992 -1.98249
291 1.3496 -0.552416 -1.96888
292 1.35191 -0.54788 -1.95527
293 1.35422 -0.543382 -1.94164
294 1.35652 -0.538924 -1.92802
295 1.35882 -0.534505 -1.9144
296 1.36112 -0.530124 -1.90078
297 1.36341 -0.525782 -1.88718
298 1.3657 -0.521478 -1.8736
299 1.36798 -0.517212 -1.86004
300 1.37027 -0.512985 -1.8465
301 1.37254 -0.508795 -1.83299
302 1.37482 -0.504643 -1.81952
303 1.37709 -0.500529 -1.80609
304 1.37935 -0.496451 -1.79269
305 1.38161 -0.49241 -1.77934
306 1.38387 -0.488407 -1.76604
307 1.38613 -0.484439 -1.75278
308 1.38838 -0.480508 -1.73958
309 1.39063 -0.476613 -1.72643
310 1.39287 -0.472753 -1.71333
311 1.39511 -0.468929 -1.7003
312 1.39735 -0.465141 -1.68732
313 1.39958 -0.461387 -1.67441
314 1.40181 -0.457668 -1.66156
315 1.40404 -0.453983 -1.64878
316 1.40626 -0.450333 -1.63607
317 1.40848 -0.446716 -1.62342
318 1.41069 -0.443133 -1.61085
319 1.41291 -0.439583 -1.59835
320 1.41512 -0.436067 -1.58592
321 1.41732 -0.432583 -1.57357
322 1.41952 -0.429132 -1.56129
323 1.42172 -0.425713 -1.54908
324 1.42392 -0.422326 -1.53696
325 1.42611 -0.418971 -1.52491
326 1.4283 -0.415647 -1.51294
327 1.43048 -0.412354 -1.50105
328 1.43266 -0.409093 -1.48923
329 1.43484 -0.405861 -1.4775
330 1.43702 -0.402661 -1.46585
331 1.43919 -0.39949 -1.45428
332 1.44136 -0.396349 -1.4428
333 1.44352 -0.393237 -1.43139
334 1.44568 -0.390155 -1.42007
335 1.44784 -0.387101 -1.40883
336 1.45 -0.384077 -1.39767
337 1.45215 -0.381081 -1.38659
338 1.4543 -0.378112 -1.3756
339 1.45644 -0.375172 -1.36469
340 1.45859 -0.37226 -1.35386
341 1.46073 -0.369374 -1.34312
342 1.46286 -0.366516 -1.33245
343 1.465 -0.363685 -1.32187
344 1.46713 -0.36088 -1.31138
345 1.46925 -0.358102 -1.30096
346 1.47138 -0.355349 -1.29063
347 1.4735 -0.352623 -1.28038
348 1.47562 -0.349922 -1.27022
349 1.47773 -0.347246 -1.26013
350 1.47984 -0.344595 -1.25012
351 1.48195 -0.341969 -1.2402
352 1.48406 -0.339368 -1.23036
353 1.48616 -0.336791 -1.2206
354 1.48826 -0.334237 -1.21092
355 1.49036 -0.331708 -1.20132
356 1.49245 -0.329203 -1.19179
357 1.49454 -0.32672 -1.18235
358 1.49663 -0.324261 -1.17299
359 1.49872 -0.321825 -1.1637
360 1.5008 -0.319411 -1.1545
361 1.50288 -0.31702 -1.14537
362 1.50496 -0.31465 -1.13632
363 1.50703 -0.312303 -1.12734
364 1.5091 -0.309978 -1.11844
365 1.51117 -0.307674 -1.10962
366 1.51323 -0.305391 -1.10087
367 1.5153 -0.30313 -1.0922
368 1.51736 -0.300889 -1.0836
369 1.51941 -0.298669 -1.07508
370 1.52147 -0.296469 -1.06663
371 1.52352 -0.29429 -1.05825
372 1.52557 -0.292131 -1.04995
373 1.52761 -0.289991 -1.04171
374 1.52966 -0.287871 -1.03355
375 1.5317 -0.285771 -1.02546
376 1.53373 -0.283689 -1.01744
377 1.53577 -0.281627 -1.00949
378 1.5378 -0.279583 -1.00161
379 1.53983 -0.277558 -0.993803
380 1.54186 -0.275552 -0.98606
381 1.54388 -0.273564 -0.978386
382 1.5459 -0.271594 -0.970778
383 1.54792 -0.269641 -0.963238
384 1.54994 -0.267707 -0.955764
385 1.55195 -0.265789 -0.948356
386 1.55396 -0.26389 -0.941013
387 1.55597 -0.262007 -0.933735
388 1.55798 -0.260141 -0.926521
389 1.55998 -0.258292 -0.919371
390 1.56198 -0.25646 -0.912284
391 1.56398 -0.254644 -0.90526
392 1.56598 -0.252844 -0.898297
393 1.56797 -0.251061 -0.891397
394 1.56996 -0.249293 -0.884557
395 1.57195 -0.247542 -0.877779
396 1.57393 -0.245805 -0.87106
397 1.57592 -0.244085 -0.8644
398 1.5779 -0.242379 -0.8578
399 1.57988 -0.240689 -0.851258
400 1.58185 -0.239014 -0.844775
401 1.58382 -0.237353 -0.838348
402 1.58579 -0.235707 -0.831979
403 1.58776 -0.234076 -0.825666
404 1.58973 -0.232459 -0.819409
405 1.59169 -0.230856 -0.813208
406 1.59365 -0.229268 -0.807062
407 1.59561 -0.227693 -0.80097
408 1.59757 -0.226132 -0.794932
409 1.59952 -0.224585 -0.788947
410 1.60147 -0.223051 -0.783016
411 1.60342 -0.221531 -0.777137
412 1.60537 -0.220024 -0.77131
413 1.60731 -0.21853 -0.765535
414 1.60925 -0.217049 -0.759811
415 1.61119 -0.215581 -0.754138
416 1.61313 -0.214125 -0.748514
417 1.61507 -0.212682 -0.742941
418 1.617 -0.211252 -0.737416
419 1.61893 -0.209834 -0.731941
420 1.62086 -0.208428 -0.726514
421 1.62278 -0.207034 -0.721134
422 1.62471 -0.205652 -0.715802
423 1.62663 -0.204282 -0.710517
424 1.62855 -0.202924 -0.705279
425 1.63046 -0.201577 -0.700087
426 1.63238 -0.200242 -0.69494
427 1.63429 -0.198918 -0.689839
428 1.6362 -0.197605 -0.684782
429 1.63811 -0.196303 -0.67977
430 1.64001 -0.195013 -0.674802
431 1.64192 -0.193733 -0.669877
432 1.64382 -0.192464 -0.664996
433 1.64572 -0.191206 -0.660157
434 1.64761 -0.189959 -0.655361
435 1.64951 -0.188722 -0.650606
436 1.6514 -0.187495 -0.645894
437 1.65329 -0.186279 -0.641222
438 1.65518 -0.185072 -0.636591
439 1.65706 -0.183876 -0.632
440 1.65895 -0.18269 -0.627449
441 1.66083 -0.181514 -0.622938
442 1.66271 -0.180347 -0.618466
443 1.66458 -0.17919 -0.614033
444 1.66646 -0.178043 -0.609639
445 1.66833 -0.176905 -0.605282
446 1.6702 -0.175777 -0.600963
447 1.67207 -0.174658 -0.596682
448 1.67394 -0.173548 -0.592437
449 1.6758 -0.172447 -0.58823
450 1.67767 -0.171355 -0.584058
451 1.67953 -0.170273 -0.579923
452 1.68139 -0.169199 -0.575823
453 1.68324 -0.168133 -0.571758
454 1.6851 -0.167077 -0.567728
455 1.68695 -0.166029 -0.563733
456 1.6888 -0.164989 -0.559772
457 1.69065 -0.163959 -0.555845
458 1.69249 -0.162936 -0.551952
459 1.69434 -0.161921 -0.548092
460 1.69618 -0.160915 -0.544265
461 1.69802 -0.159917 -0.54047
462 1.69986 -0.158927 -0.536708
463 1.70169 -0.157945 -0.532978
464 1.70353 -0.156971 -0.52928
465 1.70536 -0.156004 -0.525613
466 1.70719 -0.155046 -0.521977
467 1.70902 -0.154094 -0.518372
468 1.71085 -0.153151 -0.514797
469 1.71267 -0.152215 -0.511253
470 1.71449 -0.151286 -0.507739
471 1.71631 -0.150365 -0.504254
472 1.71813 -0.149451 -0.500798
473 1.71995 -0.148544 -0.497372
474 1.72176 -0.147645 -0.493975
475 1.72358 -0.146752 -0.490605
476 1.72539 -0.145867 -0.487265
477 1.7272 -0.144988 -0.483952
478 1.72901 -0.144117 -0.480667
479 1.73081 -0.143252 -0.477409
480 1.73261 -0.142394 -0.474179
481 1.73442 -0.141542 -0.470975
482 1.73622 -0.140698 -0.467798
483 1.73801 -0.139859 -0.464648
484 1.73981 -0.139028 -0.461524
485 1.7416 -0.138202 -0.458425
486 1.7434 -0.137384 -0.455353
487 1.74519 -0.136571 -0.452305
488 1.74698 -0.135765 -0.449283
489 1.74876 -0.134965 -0.446286
490 1.75055 -0.134171 -0.443314
491 1.75233 -0.133383 -0.440366
492 1.75411 -0.132601 -0.437442
493 1.75589 -0.131825 -0.434542
494 1.75767 -0.131055 -0.431666
495 1.75944 -0.130291 -0.428814
496 1.76122 -0.129533 -0.425985
497 1.76299 -0.12878 -0.423179
498 1.76476 -0.128033 -0.420396
499 1.76653 -0.127292 -0.417635
500 1.7683 -0.126557 -0.414898
501 1.77006 -0.125827 -0.412182
502 1.77183 -0.125102 -0.409488
503 1.77359 -0.124383 -0.406816
504 1.77535 -0.123669 -0.404166
505 1.77711 -0.122961 -0.401538
506 1.77886 -0.122258 -0.39893
507 1.78062 -0.12156 -0.396344
508 1.78237 -0.120868 -0.393778
509 1.78412 -0.12018 -0.391233
510 1.78587 -0.119498 -0.388708
511 1.78762 -0.118821 -0.386204
512 1.78937 -0.118148 -0.38372
513 1.79111 -0.117481 -0.381255
514 1.79285 -0.116819 -0.378811
515 1.79459 -0.116161 -0.376385
516 1.79633 -0.115509 -0.37398
517 1.79807 -0.114861 -0.371593
518 1.79981 -0.114218 -0.369225
519 1.80154 -0.11358 -0.366876
520 1.80328 -0.112946 -0.364546
521 1.80501 -0.112317 -0.362234
522 1.80674 -0.111692 -0.35994
523 1.80846 -0.111072 -0.357665
524 1.81019 -0.110457 -0.355407
525 1.81191 -0.109846 -0.353167
526 1.81364 -0.109239 -0.350945
527 1.81536 -0.108637 -0.34874
528 1.81708 -0.10804 -0.346553
529 1.8188 -0.107446 -0.344382
530 1.82051 -0.106857 -0.342229
531 1.82223 -0.106272 -0.340092
532 1.82394 -0.105691 -0.337973
533 1.82565 -0.105114 -0.335869
534 1.82736 -0.104542 -0.333782
535 1.82907 -0.103973 -0.331711
536 1.83078 -0.103409 -0.329656
537 1.83248 -0.102849 -0.327618
538 1.83418 -0.102292 -0.325594
539 1.83589 -0.10174 -0.323587
540 1.83759 -0.101191 -0.321595
541 1.83929 -0.100647 -0.319618
542 1.84098 -0.100106 -0.317657
543 1.84268 -0.099569 -0.31571
544 1.84437 -0.0990357 -0.313779
545 1.84607 -0.0985063 -0.311862
546 1.84776 -0.0979805 -0.30996
547 1.84945 -0.0974585 -0.308073
548 1.85113 -0.09694 -0.3062
549 1.85282 -0.0964253 -0.304341
550 1.85451 -0.095914 -0.302496
551 1.85619 -0.0954064 -0.300665
552 1.85787 -0.0949023 -0.298849
553 1.85955 -0.0944016 -0.297046
554 1.86123 -0.0939045 -0.295256
555 1.86291 -0.0934108 -0.29348
556 1.86458 -0.0929204 -0.291718
557 1.86626 -0.0924335 -0.289969
558 1.86793 -0.0919499 -0.288233
559 1.8696 -0.0914697 -0.28651
560 1.87127 -0.0909927 -0.2848
561 1.87294 -0.090519 -0.283103
562 1.87461 -0.0900485 -0.281418
563 1.87627 -0.0895813 -0.279746
564 1.87793 -0.0891172 -0.278087
565 1.8796 -0.0886563 -0.276439
566 1.88126 -0.0881986 -0.274805
567 1.88292 -0.0877439 -0.273182
568 1.88457 -0.0872923 -0.271571
569 1.88623 -0.0868438 -0.269972
570 1.88789 -0.0863983 -0.268386
571 1.88954 -0.0859558 -0.26681
572 1.89119 -0.0855163 -0.265247
573 1.89284 -0.0850797 -0.263695
574 1.89449 -0.0846461 -0.262154
575 1.89614 -0.0842154 -0.260625
576 1.89779 -0.0837876 -0.259107
577 1.89943 -0.0833626 -0.2576
578 1.90107 -0.0829404 -0.256104
579 1.90272 -0.0825211 -0.254619
580 1.90436 -0.0821046 -0.253145
581 1.906 -0.0816908 -0.251681
582 1.90763 -0.0812798 -0.250229
583 1.90927 -0.0808715 -0.248786
584 1.91091 -0.0804658 -0.247355
585 1.91254 -0.0800629 -0.245933
586 1.91417 -0.0796626 -0.244522
587 1.9158 -0.079265 -0.243121
588 1.91743 -0.07887 -0.241731
589 1.91906 -0.0784775 -0.24035
590 1.92069 -0.0780877 -0.238979
591 1.92231 -0.0777003 -0.237618
592 1.92394 -0.0773155 -0.236267
593 1.92556 -0.0769333 -0.234925
594 1.92718 -0.0765535 -0.233593
595 1.9288 -0.0761761 -0.232271
596 1.93042 -0.0758013 -0.230958
597 1.93204 -0.0754288 -0.229655
598 1.93365 -0.0750588 -0.22836
599 1.93527 -0.0746912 -0.227075
600 1.93688 -0.0743259 -0.225799
601 1.93849 -0.073963 -0.224532
602 1.9401 -0.0736024 -0.223274
603 1.94171 -0.0732441 -0.222025
604 1.94332 -0.0728882 -0.220785
605 1.94492 -0.0725345 -0.219553
606 1.94653 -0.072183 -0.218331
607 1.94813 -0.0718339 -0.217116
608 1.94974 -0.0714869 -0.215911
609 1.95134 -0.0711421 -0.214713
610 1.95294 -0.0707996 -0.213525
611 1.95454 -0.0704592 -0.212344
612 1.95613 -0.070121 -0.211172
613 1.95773 -0.0697849 -0.210008
614 1.95932 -0.0694509 -0.208852
615 1.96092 -0.0691191 -0.207704
616 1.96251 -0.0687893 -0.206564
617 1.9641 -0.0684616 -0.205431
618 1.96569 -0.068136 -0.204307
619 1.96728 -0.0678124 -0.203191
620 1.96886 -0.0674908 -0.202082
621 1.97045 -0.0671713 -0.200981
622 1.97203 -0.0668537 -0.199887
623 1.97362 -0.0665382 -0.198801
624 1.9752 -0.0662246 -0.197723
625 1.97678 -0.0659129 -0.196651
626 1.97836 -0.0656032 -0.195588
627 1.97994 -0.0652954 -0.194531
628 1.98151 -0.0649895 -0.193482
629 1.98309 -0.0646855 -0.19244
630 1.98466 -0.0643833 -0.191405
631 1.98624 -0.0640831 -0.190376
632 1.98781 -0.0637846 -0.189355
633 1.98938 -0.063488 -0.188341
634 1.99095 -0.0631933 -0.187334
635 1.99252 -0.0629003 -0.186334
636 1.99408 -0.0626091 -0.18534
637 1.99565 -0.0623197 -0.184353
638 1.99721 -0.0620321 -0.183373
639 1.99878 -0.0617462 -0.182399
640 2.00034 -0.0614621 -0.181432
641 2.0019 -0.0611797 -0.180471
642 2.00346 -0.060899 -0.179517
643 2.00502 -0.06062 -0.178569
644 2.00657 -0.0603427 -0.177628
645 2.00813 -0.0600671 -0.176693
646 2.00968 -0.0597931 -0.175764
